#delta(loglike), fluxes [ph/cm^2/s]
0.0 , 4.46116494968e-13
0.00776345934719 , 5.67635116098e-11
0.0155910300091 , 1.13080906725e-10
0.0234827105887 , 1.6939830184e-10
0.0314384992234 , 2.25715696954e-10
0.0394583938178 , 2.8203309207e-10
0.0475423929747 , 3.38350487184e-10
0.0556904945988 , 3.946678823e-10
0.5 , 2.96e-09
1.0 , 5.16e-09
1.35 , 6.48e-09
2.0 , 8.62e-09
2.5 , 1.008e-08
3.0 , 1.14e-08
3.5 , 1.264e-08
4.0 , 1.382e-08
