#delta(loglike), fluxes [ph/cm^2/s]
0.0 , 1.21953814143e-14
0.00256124394946 , 5.79531213859e-12
0.00512863555923 , 1.15784288958e-11
0.00770217494573 , 1.73615456529e-11
0.0102818619926 , 2.31446624101e-11
0.0128676965833 , 2.89277791673e-11
0.0154596787179 , 3.47108959245e-11
0.01805780828 , 4.04940126817e-11
0.5000, 9.33e-10 
1.0000, 1.65e-09 
1.3500, 2.07e-09 
2.0000, 2.77e-09 
2.5000, 3.25e-09 
3.0000, 3.69e-09 
3.5000, 4.10e-09 
4.0000, 4.48e-09 
